freq,psd_x,psd_y,psd_z,psd_xyz
0.0,3.287e+00,8.633e+00,5.883e+02,6.002e+02
1.6,1.236e+01,1.585e+01,3.570e+02,3.852e+02
3.1,1.449e+01,1.475e+01,3.856e+01,6.780e+01
4.7,1.555e+01,1.466e+01,4.089e+02,4.391e+02
6.3,1.528e+01,1.501e+01,1.323e+03,1.353e+03
7.8,1.504e+01,1.655e+01,1.917e+03,1.949e+03
9.4,1.444e+01,1.578e+01,2.769e+03,2.800e+03
10.9,1.426e+01,1.415e+01,3.947e+03,3.975e+03
12.5,1.395e+01,1.561e+01,5.362e+03,5.392e+03
14.1,1.438e+01,1.747e+01,7.308e+03,7.340e+03
15.6,1.409e+01,1.723e+01,9.750e+03,9.781e+03
17.2,1.511e+01,1.711e+01,1.226e+04,1.230e+04
18.8,1.590e+01,2.003e+01,1.470e+04,1.474e+04
20.3,1.678e+01,6.363e+01,1.752e+04,1.760e+04
21.9,1.716e+01,5.876e+01,2.048e+04,2.056e+04
23.4,1.675e+01,1.800e+01,2.372e+04,2.376e+04
25.0,1.762e+01,1.608e+01,2.842e+04,2.845e+04
26.6,1.970e+01,1.796e+01,3.439e+04,3.443e+04
28.1,2.156e+01,1.790e+01,4.190e+04,4.194e+04
29.7,2.110e+01,1.732e+01,5.160e+04,5.164e+04
31.3,2.014e+01,1.539e+01,6.434e+04,6.438e+04
32.8,2.233e+01,1.374e+01,8.085e+04,8.089e+04
34.4,2.585e+01,1.357e+01,1.028e+05,1.028e+05
35.9,3.152e+01,1.466e+01,1.347e+05,1.348e+05
37.5,3.647e+01,1.511e+01,1.829e+05,1.829e+05
39.1,4.148e+01,1.553e+01,2.565e+05,2.566e+05
40.6,6.809e+01,1.606e+01,3.778e+05,3.778e+05
42.2,1.305e+02,2.285e+01,6.182e+05,6.184e+05
43.8,2.318e+02,6.585e+01,1.112e+06,1.112e+06
45.3,3.292e+02,2.949e+02,1.802e+06,1.803e+06
46.9,3.314e+02,6.579e+02,1.934e+06,1.935e+06
48.4,3.223e+02,8.072e+02,1.540e+06,1.541e+06
50.0,3.244e+02,9.344e+02,1.160e+06,1.161e+06
51.6,3.075e+02,1.254e+03,9.005e+05,9.021e+05
53.1,2.907e+02,1.465e+03,7.311e+05,7.329e+05
54.7,2.653e+02,1.280e+03,6.102e+05,6.118e+05
56.3,1.614e+02,9.229e+02,5.157e+05,5.168e+05
57.8,2.096e+02,1.170e+03,4.415e+05,4.429e+05
59.4,2.385e+02,1.467e+03,3.788e+05,3.805e+05
60.9,1.660e+02,1.438e+03,3.238e+05,3.254e+05
62.5,1.619e+02,1.463e+03,2.752e+05,2.768e+05
64.1,2.178e+02,1.777e+03,2.386e+05,2.406e+05
65.6,2.518e+02,2.084e+03,2.133e+05,2.156e+05
67.2,2.115e+02,2.258e+03,1.905e+05,1.930e+05
68.8,1.275e+02,2.212e+03,1.723e+05,1.747e+05
70.3,4.562e+01,1.858e+03,1.623e+05,1.642e+05
71.9,2.739e+01,1.348e+03,1.616e+05,1.630e+05
73.5,6.722e+01,1.285e+03,1.607e+05,1.621e+05
75.0,1.369e+02,1.818e+03,1.607e+05,1.627e+05
76.6,2.248e+02,2.781e+03,1.578e+05,1.608e+05
78.1,3.007e+02,4.096e+03,1.514e+05,1.558e+05
79.7,3.212e+02,5.184e+03,1.448e+05,1.503e+05
81.3,2.850e+02,5.651e+03,1.373e+05,1.433e+05
82.8,4.056e+02,5.980e+03,1.283e+05,1.347e+05
84.4,8.398e+02,6.801e+03,1.147e+05,1.223e+05
86.0,1.563e+03,8.017e+03,1.025e+05,1.121e+05
87.5,1.914e+03,9.382e+03,9.659e+04,1.079e+05
89.1,1.827e+03,1.047e+04,9.489e+04,1.072e+05
90.6,1.636e+03,1.157e+04,9.728e+04,1.105e+05
92.2,1.373e+03,1.260e+04,1.018e+05,1.158e+05
93.8,1.192e+03,1.320e+04,1.048e+05,1.192e+05
95.3,1.316e+03,1.335e+04,1.060e+05,1.206e+05
96.9,1.705e+03,1.334e+04,1.085e+05,1.235e+05
98.5,1.875e+03,1.418e+04,1.090e+05,1.251e+05
100.0,1.896e+03,1.535e+04,1.082e+05,1.255e+05
101.6,2.161e+03,1.608e+04,1.065e+05,1.248e+05
103.1,2.802e+03,1.700e+04,1.034e+05,1.232e+05
104.7,3.462e+03,1.845e+04,1.005e+05,1.224e+05
106.3,3.872e+03,2.056e+04,1.001e+05,1.246e+05
107.8,3.782e+03,2.247e+04,9.814e+04,1.244e+05
109.4,3.545e+03,2.451e+04,9.568e+04,1.237e+05
111.0,3.402e+03,2.752e+04,1.002e+05,1.311e+05
112.5,3.090e+03,3.151e+04,1.082e+05,1.428e+05
114.1,2.604e+03,3.656e+04,1.162e+05,1.553e+05
115.6,2.193e+03,4.259e+04,1.234e+05,1.682e+05
117.2,1.812e+03,4.764e+04,1.254e+05,1.749e+05
118.8,1.609e+03,5.279e+04,1.272e+05,1.816e+05
120.3,1.660e+03,5.645e+04,1.242e+05,1.823e+05
121.9,1.022e+03,5.628e+04,1.140e+05,1.713e+05
123.5,6.285e+02,5.213e+04,9.801e+04,1.508e+05
125.0,4.606e+02,4.634e+04,8.087e+04,1.277e+05
126.6,3.588e+02,3.992e+04,6.548e+04,1.058e+05
128.2,4.004e+02,3.493e+04,5.385e+04,8.918e+04
129.7,4.133e+02,3.055e+04,4.478e+04,7.574e+04
131.3,7.728e+02,2.489e+04,3.651e+04,6.217e+04
132.8,1.422e+03,1.506e+04,2.222e+04,3.870e+04
134.4,1.811e+03,2.796e+03,3.530e+03,8.137e+03
136.0,1.934e+03,1.193e+03,6.639e+02,3.791e+03
137.5,1.836e+03,1.259e+03,5.464e+02,3.641e+03
139.1,1.687e+03,1.224e+03,3.667e+02,3.277e+03
140.7,1.462e+03,1.132e+03,2.853e+02,2.879e+03
142.2,1.299e+03,1.181e+03,3.307e+02,2.811e+03
143.8,1.126e+03,1.344e+03,4.699e+02,2.939e+03
145.3,9.965e+02,1.658e+03,6.445e+02,3.298e+03
146.9,8.375e+02,2.136e+03,8.977e+02,3.872e+03
148.5,7.201e+02,3.009e+03,1.291e+03,5.020e+03
150.0,5.685e+02,3.978e+03,1.688e+03,6.234e+03
151.6,3.738e+02,4.805e+03,2.017e+03,7.196e+03
153.2,4.437e+02,5.899e+03,2.399e+03,8.742e+03
154.7,5.831e+02,6.734e+03,2.633e+03,9.949e+03
156.3,5.382e+02,7.624e+03,2.814e+03,1.098e+04
157.8,4.856e+02,8.090e+03,2.749e+03,1.132e+04
159.4,4.633e+02,8.414e+03,2.566e+03,1.144e+04
161.0,4.622e+02,8.292e+03,2.299e+03,1.105e+04
162.5,4.320e+02,7.718e+03,1.842e+03,9.992e+03
164.1,3.775e+02,7.127e+03,1.524e+03,9.028e+03
165.7,3.403e+02,6.483e+03,1.377e+03,8.200e+03
167.2,3.102e+02,6.396e+03,1.269e+03,7.975e+03
168.8,2.667e+02,6.584e+03,1.165e+03,8.016e+03
170.3,2.406e+02,6.566e+03,9.938e+02,7.800e+03
171.9,2.470e+02,6.378e+03,8.244e+02,7.449e+03
173.5,2.515e+02,5.921e+03,6.605e+02,6.833e+03
175.0,2.493e+02,5.413e+03,5.355e+02,6.198e+03
176.6,3.290e+02,4.973e+03,4.637e+02,5.766e+03
178.2,4.370e+02,4.268e+03,3.710e+02,5.075e+03
179.7,5.086e+02,3.787e+03,3.442e+02,4.640e+03
181.3,5.874e+02,3.649e+03,3.440e+02,4.580e+03
182.8,4.413e+02,3.412e+03,3.879e+02,4.241e+03
184.4,3.545e+02,3.021e+03,3.473e+02,3.722e+03
186.0,3.923e+02,2.703e+03,3.337e+02,3.429e+03
187.5,4.624e+02,2.526e+03,3.476e+02,3.336e+03
189.1,5.317e+02,2.344e+03,3.592e+02,3.235e+03
190.7,6.081e+02,2.182e+03,3.808e+02,3.171e+03
192.2,6.893e+02,1.962e+03,3.915e+02,3.043e+03
193.8,9.281e+02,2.137e+03,3.883e+02,3.453e+03
195.4,1.104e+03,1.864e+03,3.482e+02,3.317e+03
196.9,1.300e+03,1.612e+03,3.466e+02,3.259e+03
198.5,1.650e+03,1.582e+03,3.751e+02,3.608e+03
