freq,psd_x,psd_y,psd_z,psd_xyz
0.0,5.834e+02,6.919e+01,9.527e+01,7.479e+02
1.4,6.757e+02,3.434e+02,4.106e+02,1.430e+03
2.9,4.489e+02,3.738e+02,4.644e+02,1.287e+03
4.3,6.649e+02,3.914e+02,4.674e+02,1.524e+03
5.7,1.601e+03,4.201e+02,5.322e+02,2.554e+03
7.2,2.354e+03,4.324e+02,5.465e+02,3.333e+03
8.6,3.093e+03,4.759e+02,5.678e+02,4.137e+03
10.0,3.807e+03,4.553e+02,5.883e+02,4.850e+03
11.5,4.472e+03,4.128e+02,5.544e+02,5.439e+03
12.9,5.451e+03,4.296e+02,5.651e+02,6.446e+03
14.3,6.437e+03,4.059e+02,5.419e+02,7.385e+03
15.8,7.682e+03,4.107e+02,5.266e+02,8.619e+03
17.2,9.056e+03,4.487e+02,5.136e+02,1.002e+04
18.6,1.025e+04,4.962e+02,5.756e+02,1.133e+04
20.1,1.191e+04,5.523e+02,6.023e+02,1.306e+04
21.5,1.353e+04,5.600e+02,6.608e+02,1.475e+04
23.0,1.640e+04,6.302e+02,7.527e+02,1.779e+04
24.4,1.971e+04,6.907e+02,7.968e+02,2.120e+04
25.8,2.255e+04,8.375e+02,9.590e+02,2.435e+04
27.3,2.417e+04,9.863e+02,1.063e+03,2.622e+04
28.7,2.586e+04,9.709e+02,1.081e+03,2.791e+04
30.1,2.827e+04,9.084e+02,1.064e+03,3.024e+04
31.6,3.130e+04,8.346e+02,9.749e+02,3.311e+04
33.0,3.522e+04,9.519e+02,1.018e+03,3.719e+04
34.4,3.950e+04,9.125e+02,9.978e+02,4.141e+04
35.9,4.486e+04,7.328e+02,8.799e+02,4.647e+04
37.3,4.929e+04,7.512e+02,8.808e+02,5.092e+04
38.7,5.399e+04,6.426e+02,8.051e+02,5.543e+04
40.2,6.052e+04,5.741e+02,7.501e+02,6.184e+04
41.6,6.743e+04,4.884e+02,6.618e+02,6.858e+04
43.0,7.679e+04,4.233e+02,6.016e+02,7.781e+04
44.5,8.829e+04,3.661e+02,5.822e+02,8.923e+04
45.9,9.791e+04,3.197e+02,5.258e+02,9.876e+04
47.3,1.029e+05,3.478e+02,5.491e+02,1.038e+05
48.8,1.103e+05,3.444e+02,6.130e+02,1.113e+05
50.2,1.208e+05,3.366e+02,6.579e+02,1.217e+05
51.6,1.299e+05,3.311e+02,7.792e+02,1.310e+05
53.1,1.420e+05,3.061e+02,8.834e+02,1.432e+05
54.5,1.622e+05,3.084e+02,1.090e+03,1.636e+05
55.9,1.893e+05,3.316e+02,1.560e+03,1.912e+05
57.4,2.227e+05,3.511e+02,2.015e+03,2.251e+05
58.8,2.614e+05,3.196e+02,2.150e+03,2.639e+05
60.3,3.210e+05,3.183e+02,2.752e+03,3.240e+05
61.7,4.007e+05,4.155e+02,4.338e+03,4.054e+05
63.1,4.947e+05,5.176e+02,5.520e+03,5.008e+05
64.6,6.259e+05,5.516e+02,6.734e+03,6.331e+05
66.0,8.113e+05,7.466e+02,1.228e+04,8.243e+05
67.4,1.071e+06,1.051e+03,1.974e+04,1.092e+06
68.9,1.515e+06,1.394e+03,1.950e+04,1.536e+06
70.3,2.134e+06,2.334e+03,1.576e+04,2.152e+06
71.7,2.627e+06,4.178e+03,1.553e+04,2.646e+06
73.2,2.782e+06,6.039e+03,1.497e+04,2.803e+06
74.6,2.580e+06,6.302e+03,1.258e+04,2.598e+06
76.0,2.156e+06,5.449e+03,9.681e+03,2.171e+06
77.5,1.822e+06,4.219e+03,7.672e+03,1.834e+06
78.9,1.502e+06,3.233e+03,5.290e+03,1.510e+06
80.3,1.171e+06,3.508e+03,3.705e+03,1.178e+06
81.8,8.769e+05,3.107e+03,2.923e+03,8.829e+05
83.2,6.492e+05,2.126e+03,2.476e+03,6.538e+05
84.6,4.764e+05,2.412e+03,3.147e+03,4.820e+05
86.1,3.429e+05,1.956e+03,2.600e+03,3.475e+05
87.5,2.505e+05,1.891e+03,2.315e+03,2.547e+05
88.9,1.828e+05,2.182e+03,2.319e+03,1.873e+05
90.4,1.339e+05,2.443e+03,2.590e+03,1.389e+05
91.8,1.086e+05,2.683e+03,2.915e+03,1.142e+05
93.2,1.061e+05,3.031e+03,2.877e+03,1.120e+05
94.7,1.163e+05,4.063e+03,3.004e+03,1.233e+05
96.1,1.368e+05,5.496e+03,3.454e+03,1.457e+05
97.6,1.984e+05,5.341e+03,3.634e+03,2.074e+05
99.0,3.586e+05,4.938e+03,3.543e+03,3.671e+05
100.4,4.971e+05,5.081e+03,3.854e+03,5.060e+05
101.9,5.086e+05,5.437e+03,4.797e+03,5.189e+05
103.3,4.733e+05,5.677e+03,6.383e+03,4.854e+05
104.7,4.143e+05,5.421e+03,7.592e+03,4.273e+05
106.2,3.500e+05,4.876e+03,8.149e+03,3.630e+05
107.6,3.009e+05,4.849e+03,8.511e+03,3.142e+05
109.0,2.663e+05,4.568e+03,9.271e+03,2.802e+05
110.5,2.419e+05,4.286e+03,9.714e+03,2.559e+05
111.9,2.267e+05,4.842e+03,9.222e+03,2.407e+05
113.3,2.291e+05,6.349e+03,8.705e+03,2.442e+05
114.8,2.371e+05,9.480e+03,8.095e+03,2.547e+05
116.2,2.372e+05,1.302e+04,7.622e+03,2.579e+05
117.6,2.356e+05,1.592e+04,6.718e+03,2.583e+05
119.1,2.517e+05,1.905e+04,5.908e+03,2.767e+05
120.5,2.649e+05,2.194e+04,5.550e+03,2.924e+05
121.9,2.700e+05,2.434e+04,4.966e+03,2.993e+05
123.4,2.590e+05,2.332e+04,4.058e+03,2.864e+05
124.8,2.341e+05,2.030e+04,3.020e+03,2.574e+05
126.2,1.995e+05,1.698e+04,3.167e+03,2.196e+05
127.7,1.790e+05,1.471e+04,3.064e+03,1.967e+05
129.1,1.757e+05,1.299e+04,2.720e+03,1.914e+05
130.5,1.827e+05,1.095e+04,2.650e+03,1.963e+05
132.0,1.788e+05,9.879e+03,2.780e+03,1.914e+05
133.4,7.700e+04,4.721e+03,1.734e+03,8.346e+04
134.9,1.110e+04,1.479e+03,9.725e+02,1.355e+04
136.3,8.458e+03,1.297e+03,1.049e+03,1.080e+04
137.7,8.925e+03,1.124e+03,1.078e+03,1.113e+04
139.2,9.060e+03,9.599e+02,1.041e+03,1.106e+04
140.6,8.374e+03,1.002e+03,9.834e+02,1.036e+04
142.0,8.315e+03,1.072e+03,1.132e+03,1.052e+04
143.5,7.836e+03,1.059e+03,1.217e+03,1.011e+04
144.9,7.346e+03,1.107e+03,1.326e+03,9.779e+03
146.3,7.750e+03,1.154e+03,1.360e+03,1.026e+04
147.8,7.739e+03,1.353e+03,1.425e+03,1.052e+04
149.2,7.371e+03,1.555e+03,1.277e+03,1.020e+04
150.6,7.070e+03,1.548e+03,1.353e+03,9.971e+03
152.1,7.122e+03,1.588e+03,1.382e+03,1.009e+04
153.5,7.009e+03,1.470e+03,1.270e+03,9.749e+03
154.9,6.988e+03,1.508e+03,1.267e+03,9.763e+03
156.4,7.297e+03,1.317e+03,1.074e+03,9.688e+03
157.8,7.776e+03,1.234e+03,7.405e+02,9.751e+03
159.2,7.666e+03,1.052e+03,6.317e+02,9.350e+03
160.7,7.426e+03,1.076e+03,6.149e+02,9.117e+03
162.1,7.955e+03,1.181e+03,5.884e+02,9.724e+03
163.5,8.606e+03,1.129e+03,5.410e+02,1.028e+04
165.0,8.646e+03,1.043e+03,4.817e+02,1.017e+04
166.4,8.496e+03,1.015e+03,5.347e+02,1.005e+04
167.8,8.628e+03,1.082e+03,5.190e+02,1.023e+04
169.3,9.283e+03,1.313e+03,5.142e+02,1.111e+04
170.7,9.033e+03,1.323e+03,5.075e+02,1.086e+04
172.2,9.017e+03,1.474e+03,5.227e+02,1.101e+04
173.6,9.505e+03,1.806e+03,5.931e+02,1.190e+04
175.0,1.025e+04,2.097e+03,5.782e+02,1.293e+04
176.5,1.086e+04,2.244e+03,5.406e+02,1.365e+04
177.9,1.047e+04,2.132e+03,5.179e+02,1.312e+04
179.3,1.030e+04,1.845e+03,5.442e+02,1.269e+04
180.8,1.093e+04,1.850e+03,5.999e+02,1.338e+04
182.2,1.267e+04,2.282e+03,5.958e+02,1.554e+04
183.6,1.295e+04,2.424e+03,6.286e+02,1.600e+04
185.1,1.238e+04,2.506e+03,6.199e+02,1.550e+04
186.5,1.184e+04,2.461e+03,6.070e+02,1.491e+04
187.9,1.184e+04,2.424e+03,6.633e+02,1.493e+04
189.4,1.284e+04,2.553e+03,6.197e+02,1.601e+04
190.8,1.444e+04,2.691e+03,5.856e+02,1.772e+04
192.2,1.498e+04,2.779e+03,5.921e+02,1.835e+04
193.7,1.473e+04,2.756e+03,6.150e+02,1.811e+04
195.1,1.461e+04,2.790e+03,5.730e+02,1.797e+04
196.5,1.497e+04,2.995e+03,5.258e+02,1.849e+04
198.0,1.690e+04,3.560e+03,5.493e+02,2.101e+04
199.4,1.948e+04,4.215e+03,5.623e+02,2.426e+04
