freq,psd_x,psd_y,psd_z,psd_xyz
0.0,5.816e+02,4.304e+01,4.843e+01,6.731e+02
1.5,5.286e+02,2.256e+02,2.397e+02,9.939e+02
3.0,2.452e+02,2.697e+02,3.020e+02,8.169e+02
4.5,5.336e+02,2.542e+02,2.990e+02,1.087e+03
6.0,1.465e+03,2.500e+02,3.346e+02,2.050e+03
7.5,2.137e+03,2.245e+02,3.209e+02,2.682e+03
9.0,2.900e+03,2.061e+02,2.896e+02,3.396e+03
10.5,3.649e+03,1.997e+02,3.016e+02,4.151e+03
12.0,4.576e+03,1.847e+02,2.938e+02,5.055e+03
13.5,5.945e+03,1.830e+02,2.919e+02,6.420e+03
15.0,7.238e+03,1.881e+02,2.716e+02,7.697e+03
16.5,8.617e+03,1.860e+02,2.495e+02,9.052e+03
18.0,1.004e+04,1.818e+02,2.367e+02,1.046e+04
19.5,1.169e+04,1.931e+02,2.489e+02,1.213e+04
21.0,1.326e+04,1.955e+02,2.623e+02,1.371e+04
22.5,1.604e+04,2.157e+02,2.903e+02,1.654e+04
24.0,1.931e+04,2.435e+02,3.217e+02,1.987e+04
25.5,2.276e+04,2.277e+02,3.152e+02,2.330e+04
27.0,2.541e+04,2.078e+02,3.037e+02,2.593e+04
28.5,2.794e+04,1.928e+02,2.978e+02,2.843e+04
30.0,3.108e+04,2.127e+02,2.905e+02,3.158e+04
31.5,3.441e+04,2.207e+02,3.185e+02,3.495e+04
32.9,3.841e+04,2.294e+02,3.530e+02,3.899e+04
34.4,4.455e+04,2.268e+02,4.038e+02,4.518e+04
35.9,5.358e+04,2.772e+02,5.351e+02,5.439e+04
37.4,6.119e+04,3.429e+02,6.086e+02,6.214e+04
38.9,6.757e+04,3.970e+02,7.305e+02,6.870e+04
40.4,7.341e+04,4.525e+02,9.322e+02,7.479e+04
41.9,7.959e+04,4.000e+02,8.241e+02,8.082e+04
43.4,8.776e+04,2.892e+02,6.009e+02,8.866e+04
44.9,9.799e+04,2.283e+02,5.823e+02,9.880e+04
46.4,1.088e+05,2.083e+02,5.513e+02,1.096e+05
47.9,1.206e+05,2.916e+02,6.350e+02,1.216e+05
49.4,1.342e+05,3.254e+02,7.887e+02,1.353e+05
50.9,1.471e+05,2.560e+02,8.719e+02,1.483e+05
52.4,1.587e+05,2.630e+02,1.038e+03,1.600e+05
53.9,1.776e+05,3.023e+02,1.197e+03,1.791e+05
55.4,2.089e+05,3.108e+02,1.354e+03,2.105e+05
56.9,2.451e+05,2.992e+02,1.752e+03,2.471e+05
58.4,2.776e+05,2.788e+02,2.128e+03,2.800e+05
59.9,3.062e+05,2.216e+02,2.155e+03,3.086e+05
61.4,3.505e+05,2.616e+02,2.567e+03,3.534e+05
62.9,4.265e+05,3.243e+02,3.580e+03,4.304e+05
64.4,5.264e+05,4.798e+02,5.697e+03,5.326e+05
65.9,6.507e+05,7.830e+02,9.669e+03,6.611e+05
67.4,8.225e+05,1.436e+03,1.525e+04,8.391e+05
68.9,1.088e+06,2.203e+03,1.795e+04,1.108e+06
70.4,1.442e+06,2.465e+03,1.770e+04,1.463e+06
71.9,1.814e+06,2.580e+03,1.763e+04,1.834e+06
73.4,2.099e+06,3.028e+03,1.647e+04,2.118e+06
74.9,2.322e+06,3.706e+03,1.536e+04,2.341e+06
76.4,2.302e+06,3.583e+03,1.342e+04,2.319e+06
77.9,2.075e+06,3.169e+03,1.123e+04,2.089e+06
79.4,1.743e+06,3.024e+03,9.342e+03,1.755e+06
80.9,1.385e+06,2.740e+03,7.908e+03,1.396e+06
82.4,1.054e+06,2.056e+03,5.833e+03,1.062e+06
83.9,7.815e+05,1.539e+03,4.314e+03,7.873e+05
85.4,5.678e+05,1.116e+03,3.335e+03,5.723e+05
86.9,4.078e+05,8.731e+02,3.071e+03,4.118e+05
88.4,2.894e+05,9.652e+02,3.134e+03,2.935e+05
89.9,2.006e+05,1.461e+03,3.303e+03,2.054e+05
91.4,1.421e+05,2.079e+03,3.363e+03,1.476e+05
92.9,1.060e+05,2.792e+03,3.821e+03,1.127e+05
94.4,8.172e+04,3.845e+03,4.966e+03,9.053e+04
95.9,6.749e+04,5.205e+03,6.396e+03,7.909e+04
97.4,6.788e+04,7.040e+03,8.317e+03,8.324e+04
98.8,8.046e+04,8.533e+03,1.090e+04,9.989e+04
100.3,1.167e+05,9.816e+03,1.242e+04,1.390e+05
101.8,1.844e+05,9.489e+03,1.145e+04,2.053e+05
103.3,2.555e+05,8.077e+03,1.125e+04,2.749e+05
104.8,2.764e+05,6.617e+03,1.143e+04,2.945e+05
106.3,2.822e+05,4.698e+03,1.043e+04,2.973e+05
107.8,2.844e+05,3.081e+03,8.553e+03,2.960e+05
109.3,2.968e+05,2.638e+03,7.682e+03,3.072e+05
110.8,3.477e+05,3.163e+03,7.327e+03,3.582e+05
112.3,4.163e+05,3.700e+03,5.208e+03,4.252e+05
113.8,4.435e+05,3.469e+03,2.652e+03,4.496e+05
115.3,3.955e+05,2.408e+03,1.579e+03,3.995e+05
116.8,3.705e+05,2.539e+03,1.504e+03,3.745e+05
118.3,3.451e+05,3.098e+03,1.258e+03,3.494e+05
119.8,3.048e+05,4.101e+03,1.125e+03,3.101e+05
121.3,2.999e+05,5.768e+03,1.191e+03,3.069e+05
122.8,3.032e+05,6.223e+03,1.778e+03,3.112e+05
124.3,2.817e+05,4.390e+03,1.712e+03,2.878e+05
125.8,2.260e+05,2.768e+03,1.456e+03,2.302e+05
127.3,2.095e+05,1.137e+03,1.783e+03,2.124e+05
128.8,2.245e+05,5.526e+02,2.303e+03,2.273e+05
130.3,2.373e+05,4.772e+02,2.735e+03,2.406e+05
131.8,2.225e+05,6.073e+02,2.926e+03,2.260e+05
133.3,9.607e+04,6.455e+02,1.789e+03,9.850e+04
134.8,1.214e+04,5.785e+02,7.886e+02,1.350e+04
136.3,7.732e+03,5.862e+02,6.046e+02,8.923e+03
137.8,7.511e+03,6.435e+02,5.309e+02,8.685e+03
139.3,7.353e+03,6.767e+02,4.763e+02,8.506e+03
140.8,6.875e+03,5.579e+02,4.252e+02,7.858e+03
142.3,6.487e+03,5.087e+02,4.037e+02,7.399e+03
143.8,5.968e+03,5.173e+02,4.785e+02,6.964e+03
145.3,6.263e+03,7.421e+02,7.333e+02,7.739e+03
146.8,7.263e+03,1.219e+03,1.123e+03,9.605e+03
148.3,7.467e+03,1.137e+03,9.137e+02,9.517e+03
149.8,6.818e+03,1.203e+03,1.051e+03,9.073e+03
151.3,6.217e+03,1.170e+03,1.187e+03,8.574e+03
152.8,6.668e+03,1.219e+03,1.282e+03,9.168e+03
154.3,6.696e+03,1.248e+03,1.260e+03,9.204e+03
155.8,6.170e+03,1.211e+03,1.150e+03,8.532e+03
157.3,6.766e+03,1.254e+03,9.563e+02,8.977e+03
158.8,7.470e+03,1.334e+03,9.807e+02,9.784e+03
160.3,7.437e+03,1.433e+03,9.485e+02,9.818e+03
161.8,7.471e+03,1.020e+03,6.776e+02,9.168e+03
163.3,8.873e+03,9.250e+02,6.580e+02,1.046e+04
164.7,9.217e+03,8.164e+02,6.502e+02,1.068e+04
166.2,8.850e+03,8.755e+02,6.317e+02,1.036e+04
167.7,8.949e+03,1.032e+03,5.339e+02,1.051e+04
169.2,9.543e+03,9.665e+02,5.001e+02,1.101e+04
170.7,9.855e+03,8.574e+02,5.377e+02,1.125e+04
172.2,9.367e+03,7.738e+02,5.709e+02,1.071e+04
173.7,9.360e+03,7.204e+02,5.720e+02,1.065e+04
175.2,9.954e+03,5.444e+02,4.380e+02,1.094e+04
176.7,1.032e+04,4.103e+02,3.877e+02,1.112e+04
178.2,1.024e+04,4.544e+02,4.014e+02,1.110e+04
179.7,1.001e+04,4.970e+02,4.293e+02,1.094e+04
181.2,1.036e+04,4.888e+02,4.980e+02,1.134e+04
182.7,1.141e+04,4.975e+02,5.302e+02,1.244e+04
184.2,1.142e+04,6.336e+02,5.796e+02,1.264e+04
185.7,1.092e+04,6.864e+02,6.940e+02,1.230e+04
187.2,1.101e+04,7.581e+02,8.160e+02,1.259e+04
188.7,1.172e+04,7.837e+02,7.621e+02,1.327e+04
190.2,1.328e+04,8.322e+02,7.247e+02,1.483e+04
191.7,1.408e+04,8.701e+02,6.802e+02,1.563e+04
193.2,1.417e+04,9.503e+02,7.370e+02,1.585e+04
194.7,1.464e+04,1.127e+03,8.349e+02,1.660e+04
196.2,1.506e+04,1.287e+03,8.998e+02,1.725e+04
197.7,1.628e+04,1.300e+03,9.235e+02,1.851e+04
199.2,1.826e+04,1.647e+03,1.262e+03,2.117e+04
