freq,psd_x,psd_y,psd_z,psd_xyz
0.0,7.892e+02,1.654e+02,1.358e+02,1.090e+03
1.6,8.090e+02,8.330e+02,7.394e+02,2.381e+03
3.3,5.035e+02,1.032e+03,9.552e+02,2.491e+03
4.9,8.874e+02,1.070e+03,9.712e+02,2.928e+03
6.5,1.765e+03,1.103e+03,9.927e+02,3.861e+03
8.2,2.538e+03,1.085e+03,9.966e+02,4.620e+03
9.8,3.515e+03,1.008e+03,9.582e+02,5.481e+03
11.4,4.838e+03,1.021e+03,9.151e+02,6.775e+03
13.1,6.281e+03,1.002e+03,9.451e+02,8.228e+03
14.7,7.855e+03,1.056e+03,1.015e+03,9.927e+03
16.4,9.757e+03,1.073e+03,8.900e+02,1.172e+04
18.0,1.214e+04,1.008e+03,8.227e+02,1.397e+04
19.6,1.504e+04,1.013e+03,7.858e+02,1.684e+04
21.3,1.749e+04,1.032e+03,9.072e+02,1.943e+04
22.9,1.862e+04,1.044e+03,9.494e+02,2.061e+04
24.5,2.260e+04,9.994e+02,9.070e+02,2.451e+04
26.2,2.831e+04,1.012e+03,8.906e+02,3.021e+04
27.8,3.194e+04,1.065e+03,1.007e+03,3.401e+04
29.4,3.181e+04,9.878e+02,9.322e+02,3.373e+04
31.1,3.404e+04,1.019e+03,8.996e+02,3.596e+04
32.7,3.913e+04,1.010e+03,9.037e+02,4.104e+04
34.3,4.584e+04,9.244e+02,9.499e+02,4.771e+04
36.0,5.404e+04,9.540e+02,9.955e+02,5.599e+04
37.6,6.401e+04,1.091e+03,9.818e+02,6.608e+04
39.2,7.595e+04,1.025e+03,9.047e+02,7.788e+04
40.9,8.894e+04,9.171e+02,9.290e+02,9.079e+04
42.5,1.035e+05,8.158e+02,9.915e+02,1.053e+05
44.1,1.222e+05,9.264e+02,9.400e+02,1.241e+05
45.8,1.444e+05,1.122e+03,1.057e+03,1.466e+05
47.4,1.711e+05,1.158e+03,8.953e+02,1.731e+05
49.1,2.069e+05,1.167e+03,8.596e+02,2.089e+05
50.7,2.500e+05,1.072e+03,9.599e+02,2.520e+05
52.3,3.090e+05,1.055e+03,1.072e+03,3.111e+05
54.0,3.778e+05,1.431e+03,1.392e+03,3.806e+05
55.6,4.761e+05,1.883e+03,1.710e+03,4.797e+05
57.2,6.742e+05,2.120e+03,2.332e+03,6.787e+05
58.9,9.535e+05,2.831e+03,3.758e+03,9.600e+05
60.5,1.201e+06,2.782e+03,5.180e+03,1.208e+06
62.1,1.226e+06,4.919e+03,6.337e+03,1.237e+06
63.8,9.954e+05,8.339e+03,6.901e+03,1.011e+06
65.4,6.716e+05,9.435e+03,5.364e+03,6.864e+05
67.0,4.199e+05,8.970e+03,4.007e+03,4.329e+05
68.7,2.854e+05,1.079e+04,3.503e+03,2.997e+05
70.3,2.254e+05,1.660e+04,4.803e+03,2.468e+05
71.9,1.965e+05,2.359e+04,7.258e+03,2.273e+05
73.6,1.788e+05,2.906e+04,9.382e+03,2.172e+05
75.2,1.762e+05,3.253e+04,1.165e+04,2.204e+05
76.9,1.843e+05,2.993e+04,1.253e+04,2.268e+05
78.5,1.937e+05,3.068e+04,1.404e+04,2.384e+05
80.1,2.064e+05,3.293e+04,1.615e+04,2.555e+05
81.8,2.240e+05,3.000e+04,1.629e+04,2.703e+05
83.4,2.525e+05,2.594e+04,1.559e+04,2.940e+05
85.0,2.827e+05,2.252e+04,1.504e+04,3.202e+05
86.7,3.202e+05,1.924e+04,1.387e+04,3.533e+05
88.3,4.115e+05,1.523e+04,1.289e+04,4.396e+05
89.9,4.983e+05,1.442e+04,1.431e+04,5.271e+05
91.6,5.934e+05,1.476e+04,1.558e+04,6.238e+05
93.2,6.695e+05,1.720e+04,1.893e+04,7.056e+05
94.8,5.711e+05,2.112e+04,2.174e+04,6.140e+05
96.5,3.994e+05,2.632e+04,2.673e+04,4.524e+05
98.1,3.761e+05,2.822e+04,3.189e+04,4.362e+05
99.7,4.120e+05,2.955e+04,3.661e+04,4.782e+05
101.4,5.805e+05,2.748e+04,2.944e+04,6.374e+05
103.0,1.093e+06,2.678e+04,2.434e+04,1.144e+06
104.6,1.950e+06,3.600e+04,3.871e+04,2.025e+06
106.3,2.062e+06,3.752e+04,4.646e+04,2.146e+06
107.9,1.386e+06,2.659e+04,2.984e+04,1.443e+06
109.6,1.533e+06,2.764e+04,2.628e+04,1.587e+06
111.2,2.029e+06,4.140e+04,5.802e+04,2.129e+06
112.8,2.500e+06,5.782e+04,9.603e+04,2.653e+06
114.5,2.826e+06,6.188e+04,1.114e+05,2.999e+06
116.1,2.957e+06,5.668e+04,1.120e+05,3.126e+06
117.7,3.156e+06,4.544e+04,9.097e+04,3.293e+06
119.4,3.196e+06,4.046e+04,8.377e+04,3.320e+06
121.0,2.968e+06,4.355e+04,9.370e+04,3.105e+06
122.6,2.786e+06,4.505e+04,9.493e+04,2.926e+06
124.3,2.596e+06,4.167e+04,8.628e+04,2.724e+06
125.9,2.337e+06,3.585e+04,7.328e+04,2.447e+06
127.5,2.167e+06,3.250e+04,6.843e+04,2.268e+06
129.2,2.081e+06,3.126e+04,7.198e+04,2.184e+06
130.8,2.003e+06,3.024e+04,7.354e+04,2.106e+06
132.4,1.393e+06,1.957e+04,4.437e+04,1.457e+06
134.1,2.543e+05,6.337e+03,1.012e+04,2.708e+05
135.7,4.405e+04,3.963e+03,4.414e+03,5.243e+04
137.4,4.619e+04,3.741e+03,4.431e+03,5.437e+04
139.0,4.567e+04,3.677e+03,4.204e+03,5.355e+04
140.6,3.810e+04,4.237e+03,3.815e+03,4.615e+04
142.3,3.273e+04,4.623e+03,3.806e+03,4.116e+04
143.9,3.097e+04,4.702e+03,4.060e+03,3.973e+04
145.5,2.991e+04,4.846e+03,4.351e+03,3.911e+04
147.2,2.996e+04,4.968e+03,4.897e+03,3.982e+04
148.8,2.910e+04,5.495e+03,5.717e+03,4.031e+04
150.4,2.952e+04,5.615e+03,6.741e+03,4.188e+04
152.1,3.010e+04,5.664e+03,8.277e+03,4.404e+04
153.7,2.926e+04,6.438e+03,1.063e+04,4.633e+04
155.3,2.972e+04,6.903e+03,1.284e+04,4.947e+04
157.0,3.289e+04,7.242e+03,1.411e+04,5.424e+04
158.6,3.799e+04,7.571e+03,1.459e+04,6.015e+04
160.2,4.362e+04,8.435e+03,1.603e+04,6.808e+04
161.9,5.008e+04,9.143e+03,1.709e+04,7.631e+04
163.5,5.598e+04,9.486e+03,1.741e+04,8.287e+04
165.1,5.754e+04,9.517e+03,1.765e+04,8.471e+04
166.8,5.732e+04,1.017e+04,1.737e+04,8.486e+04
168.4,5.870e+04,1.092e+04,1.802e+04,8.765e+04
170.1,6.337e+04,1.137e+04,1.811e+04,9.285e+04
171.7,6.720e+04,1.135e+04,1.703e+04,9.558e+04
173.3,7.162e+04,1.195e+04,1.731e+04,1.009e+05
175.0,8.866e+04,1.580e+04,2.256e+04,1.270e+05
176.6,1.080e+05,1.822e+04,2.711e+04,1.534e+05
178.2,1.251e+05,1.949e+04,2.782e+04,1.724e+05
179.9,1.500e+05,2.117e+04,2.955e+04,2.007e+05
181.5,1.771e+05,2.131e+04,3.163e+04,2.301e+05
183.1,1.900e+05,2.109e+04,3.414e+04,2.453e+05
184.8,1.862e+05,2.157e+04,3.511e+04,2.429e+05
186.4,1.759e+05,2.036e+04,3.329e+04,2.295e+05
188.0,1.580e+05,1.848e+04,3.126e+04,2.078e+05
189.7,1.299e+05,1.631e+04,2.650e+04,1.727e+05
191.3,1.006e+05,1.381e+04,2.242e+04,1.368e+05
192.9,7.667e+04,1.323e+04,2.118e+04,1.111e+05
194.6,6.034e+04,1.263e+04,1.997e+04,9.294e+04
196.2,4.458e+04,1.119e+04,1.689e+04,7.266e+04
197.9,2.881e+04,8.713e+03,1.323e+04,5.076e+04
199.5,2.053e+04,6.634e+03,9.196e+03,3.636e+04
